wavenumber,transmittance
4000.0,-0.0020382532544318
3996.0,-0.0034278827716520814
3992.0,-0.004567626018087076
3988.01,-0.005658515481928645
3984.01,-0.006014167857908004
3980.01,-0.0046373886032002485
3976.01,-0.001733855902481811
3972.02,0.0014467970742617034
3968.02,0.003979782959485625
3964.02,0.0057838517095816794
3960.02,0.006977858374727342
3956.03,0.0073923465861461595
3952.03,0.007048110855962556
3948.03,0.0064100300287223445
3944.03,0.005663547857296027
3940.04,0.004626747276072296
3936.04,0.0034266359450636353
3932.04,0.0024860896337542907
3928.04,0.0016868760927048153
3924.05,0.0003932921695580044
3920.05,-0.0012992315454574653
3916.05,-0.0024022480762889505
3912.05,-0.002709787848219661
3908.05,-0.0029910245332358436
3904.06,-0.003376687335911329
3900.06,-0.002918059196014943
3896.06,-0.0014674390564830442
3892.06,-0.0005526155491376403
3888.07,-0.0011498232556626563
3884.07,-0.0020256634870541956
3880.07,-0.0014776875370389926
3876.07,-3.674114273039753e-05
3872.08,0.0005331558009014897
3868.08,0.00019769075678401635
3864.08,0.0009982957683801572
3860.08,0.0036902512186008686
3856.09,0.005923250871173605
3852.09,0.004763109663326718
3848.09,0.001178113585218563
3844.09,-0.0012187298519821985
3840.1,-0.0010772223868656743
3836.1,-0.00033563443593382974
3832.1,-0.001529999724603703
3828.1,-0.0039757331816972176
3824.11,-0.0049002574485406
3820.11,-0.0029295473760312077
3816.11,-9.961461499584034e-05
3812.11,0.0010321632564558184
3808.11,0.001317307255691959
3804.12,0.0031007572287359503
3800.12,0.006179421688446016
3796.12,0.00729500426146308
3792.12,0.005056033985603381
3788.13,0.0012774589866959474
3784.13,-0.0014340527330713956
3780.13,-0.0016984849928821787
3776.13,-0.00022465851079108977
3772.14,0.0014495368018822132
3768.14,0.002275042104393638
3764.14,0.0020428816245831273
3760.14,0.001157789645437201
3756.15,-0.0001426773112286744
3752.15,-0.0022880853293344716
3748.15,-0.005348358372304716
3744.15,-0.007681654379060178
3740.16,-0.007763703838035031
3736.16,-0.006335401232868889
3732.16,-0.005447396179584059
3728.16,-0.005826377306443221
3724.16,-0.006531250861859544
3720.17,-0.006959774043813905
3716.17,-0.007166161966925322
3712.17,-0.0063818828167521175
3708.17,-0.0032132416059962293
3704.18,0.0014062298271969205
3700.18,0.004256386387337748
3696.18,0.0037198955264156532
3692.18,0.002047533390024451
3688.19,0.0031948492932423957
3684.19,0.007399115732082406
3680.19,0.011222000458598653
3676.19,0.012550937829034544
3672.2,0.012173257658741702
3668.2,0.010996541212849964
3664.2,0.008159248461527848
3660.2,0.002841641603759853
3656.21,-0.0036433336406570755
3652.21,-0.0070870966777151455
3648.21,-0.0045953992014313725
3644.21,-0.00036051860945608943
3640.21,0.0008813278142865429
3636.22,-0.0006407949057703524
3632.22,-0.002573500545545002
3628.22,-0.0032101848091975567
3624.22,-0.0024724272057679987
3620.23,-0.0007206803229364915
3616.23,0.0021742351263937284
3612.23,0.005629877023237853
3608.23,0.0076624155309499824
3604.24,0.006670419960310431
3600.24,0.0029396541777096464
3596.24,-0.002106891023693067
3592.24,-0.006648999080677302
3588.25,-0.008684705232772313
3584.25,-0.00746456521037086
3580.25,-0.0043995235096781
3576.25,-0.001346771511295284
3572.26,0.0008878873971243246
3568.26,0.001940884942987091
3564.26,0.0012862668084989912
3560.26,-0.0007706965112785192
3556.26,-0.0024209337652770554
3552.27,-0.002029582917507911
3548.27,-0.00021115569287576735
3544.27,0.000522752550120958
3540.27,-0.0009229770892766326
3536.28,-0.0027924710152772607
3532.28,-0.0029789468198632473
3528.28,-0.0011066441955739775
3524.28,0.002275945530064169
3520.29,0.0065441742465129505
3516.29,0.009862505182257897
3512.29,0.00961928801501529
3508.29,0.0057769309724914324
3504.3,0.002471685056302336
3500.3,0.003724916061445455
3496.3,0.00815326402182171
3492.3,0.010803875196773881
3488.31,0.009183723081324228
3484.31,0.004970233051804148
3480.31,0.0011362376863897198
3476.31,-0.0007342557026329578
3472.32,-0.000652678364036021
3468.32,0.0003468820329216035
3464.32,0.0005187269725539122
3460.32,-0.0010055515409070996
3456.32,-0.00278180408201756
3452.33,-0.0028613741958290737
3448.33,-0.001566785401796476
3444.33,-0.0007411402238077493
3440.33,-0.0001845690038316519
3436.34,0.002070311379108359
3432.34,0.006017413357904338
3428.34,0.009044844362155675
3424.34,0.0093256418433696
3420.35,0.00793863993293747
3416.35,0.007079752579071241
3412.35,0.007788266090561585
3408.35,0.00986322165999582
3404.36,0.012290215952716933
3400.36,0.013195155959825374
3396.36,0.011105900325388706
3392.36,0.007120717131473211
3388.37,0.004253394811681812
3384.37,0.003947497892733332
3380.37,0.0048673704644355146
3376.37,0.0054966950538667654
3372.37,0.005810733708951409
3368.38,0.00584664621149464
3364.38,0.004991959075398962
3360.38,0.003986197411592852
3356.38,0.00507025030326211
3352.39,0.008582350967777217
3348.39,0.011548998800954233
3344.39,0.01161783705310618
3340.39,0.01020474443983846
3336.4,0.009908412229665538
3332.4,0.010725261919659279
3328.4,0.010847231428358603
3324.4,0.009819054989165814
3320.41,0.008449106892368012
3316.41,0.006807067091223089
3312.41,0.004840415325516578
3308.41,0.004203930279658513
3304.42,0.006441049700792094
3300.42,0.009624067906022708
3296.42,0.010052665404940729
3292.42,0.007297921611009458
3288.42,0.004825428964030316
3284.43,0.004975866738657951
3280.43,0.0058439183253812714
3276.43,0.004818099400131412
3272.43,0.00250246000456913
3268.44,0.001129707690955972
3264.44,0.0009847583663280782
3260.44,0.0007518488066943249
3256.44,0.00033024182966659687
3252.45,0.0008844723046810193
3248.45,0.002422478800912913
3244.45,0.003520754043781718
3240.45,0.0035463462135906262
3236.46,0.003499695824423464
3232.46,0.004276284364450121
3228.46,0.005267267085700886
3224.46,0.005311941959295287
3220.47,0.004393979211974175
3216.47,0.003620936458013296
3212.47,0.0037196722904344497
3208.47,0.0041158606986000665
3204.47,0.003755826821830006
3200.48,0.0026676662248437503
3196.48,0.0022005000380628708
3192.48,0.0033913635246758563
3188.48,0.005408470945075769
3184.49,0.00633892559513758
3180.49,0.005501146008376565
3176.49,0.004152860072539317
3172.49,0.003765138583852244
3168.5,0.004376412027888456
3164.5,0.00525433441829231
3160.5,0.006299330475187112
3156.5,0.007789210094925601
3152.51,0.009215708803356572
3148.51,0.009549067406392808
3144.51,0.008552508978532403
3140.51,0.007064060770633339
3136.52,0.005824139396812684
3132.52,0.004760943085768267
3128.52,0.00384429926930174
3124.52,0.0038262510828320296
3120.53,0.005306719733319142
3116.53,0.0074477009982667495
3112.53,0.008466268591817275
3108.53,0.007655749665036107
3104.53,0.006352203513875545
3100.54,0.006398452002054095
3096.54,0.008053944664933557
3092.54,0.010059314205955376
3088.54,0.011626787926159914
3084.55,0.013349586843063688
3080.55,0.015921488547685176
3076.55,0.018731711745473365
3072.55,0.02054687535569844
3068.56,0.021194963689431492
3064.56,0.021623938843464426
3060.56,0.022355290269085906
3056.56,0.022826638938635554
3052.57,0.022575868446840553
3048.57,0.022241083749063483
3044.57,0.022931199527458333
3040.57,0.025528104664245054
3036.58,0.03153244175250125
3032.58,0.04336816465200061
3028.58,0.061329361067290596
3024.58,0.07963769842084563
3020.58,0.08794366811307337
3016.59,0.08005600193566946
3012.59,0.060979766535287534
3008.59,0.041940095744226046
3004.59,0.030096080649363328
3000.6,0.02536522274803241
2996.6,0.024509389993397683
2992.6,0.025660757184050684
2988.6,0.028660044015759622
2984.61,0.03274545482916138
2980.61,0.035854113715357294
2976.61,0.03633099973510206
2972.61,0.03410675090839532
2968.62,0.03013363807496427
2964.62,0.025634178123855707
2960.62,0.02181274391854512
2956.62,0.01948097740284623
2952.63,0.01874454542189116
2948.63,0.019199578638632062
2944.63,0.020461195621251607
2940.63,0.022321394236683726
2936.63,0.02443960901364194
2932.64,0.026181311023051764
2928.64,0.02698382945785938
2924.64,0.026655597599724246
2920.64,0.025330773424472264
2916.65,0.023458936592636828
2912.65,0.0216078687787658
2908.65,0.02001751994611907
2904.65,0.01857729886201839
2900.66,0.01726291368745301
2896.66,0.016389119340188343
2892.66,0.016214951450447324
2888.66,0.016471745444538066
2884.67,0.016605835863883787
2880.67,0.0163611774503728
2876.67,0.015810619556298644
2872.67,0.014944779499541814
2868.68,0.013744513627842516
2864.68,0.012673241677027526
2860.68,0.012543070368873074
2856.68,0.013587490122523882
2852.68,0.01494241000838971
2848.69,0.015485588756786075
2844.69,0.015040668755175712
2840.69,0.01421800120921312
2836.69,0.01338465636010843
2832.7,0.012492134919279595
2828.7,0.011691047453380645
2824.7,0.011392381098662467
2820.7,0.011540946887185191
2816.71,0.01146170228692104
2812.71,0.01078396052611673
2808.71,0.010069583542065655
2804.71,0.009969497504051336
2800.72,0.010100853895408322
2796.72,0.00951621805914014
2792.72,0.008110867819279706
2788.72,0.006810482659761211
2784.73,0.006235878084267291
2780.73,0.005974573611022092
2776.73,0.00558454376407703
2772.73,0.005505641215157678
2768.74,0.006236006129326737
2764.74,0.00715300593868364
2760.74,0.007079303802064652
2756.74,0.00586547776914337
2752.74,0.004611863859300873
2748.75,0.004194796316442369
2744.75,0.004327781461030993
2740.75,0.004308703189464463
2736.75,0.004023251148822923
2732.76,0.0037777078174293156
2728.76,0.0036210724860146026
2724.76,0.0033602483604226164
2720.76,0.003025804171856908
2716.77,0.0029042368732979276
2712.77,0.003138982879422644
2708.77,0.0035396175612500834
2704.77,0.0037429076023676256
2700.78,0.003459858836024278
2696.78,0.0027185913600228317
2692.78,0.0019383685342463848
2688.78,0.0015520362994175918
2684.79,0.0014790757672349351
2680.79,0.0012775669208612592
2676.79,0.0009027008188199204
2672.79,0.0008942853652836723
2668.79,0.00157283964747145
2664.8,0.002433585417110329
2660.8,0.0027228384343606776
2656.8,0.0023676488778264252
2652.8,0.0019678964193929273
2648.81,0.001984018468960556
2644.81,0.0022361052649855257
2640.81,0.0022961451693211655
2636.81,0.002006877959101288
2632.82,0.0015292422883133947
2628.82,0.0013287345061162893
2624.82,0.002108703861664056
2620.82,0.004117278573819829
2616.83,0.006423551459954529
2612.83,0.007519197230529611
2608.83,0.006880191041755684
2604.83,0.00499186098261193
2600.84,0.001954230515293179
2596.84,-0.0023177443885976485
2592.84,-0.006236373789261145
2588.84,-0.006919284876847889
2584.84,-0.003731313555525405
2580.85,2.403696039308248e-05
2576.85,0.0010982021984868883
2572.85,-9.122369847803506e-05
2568.85,-0.0009454453330600434
2564.86,-0.0002534189092914067
2560.86,0.0006348329506423345
2556.86,0.00018971697301138908
2552.86,-0.001672965287756484
2548.87,-0.00369482205535816
2544.87,-0.003687498704127641
2540.87,-0.0004137663026971492
2536.87,0.004988462692067697
2532.88,0.009345481184533521
2528.88,0.010109669587642253
2524.88,0.006913031283538099
2520.88,0.0012024780737487828
2516.89,-0.004496752036725976
2512.89,-0.008060734286776292
2508.89,-0.008843765021840496
2504.89,-0.007220737679974245
2500.89,-0.004328281141045059
2496.9,-0.0018035088149905207
2492.9,-0.0010543951568715746
2488.9,-0.002470300795101484
2484.9,-0.0046068484223350265
2480.91,-0.005131444044028863
2476.91,-0.0031890398257501053
2472.91,-2.2686524082265855e-05
2468.91,0.002949393242184078
2464.92,0.005946422187993253
2460.92,0.009507609649358869
2456.92,0.01241698736288761
2452.92,0.01313583452511717
2448.93,0.012357725488714616
2444.93,0.011708262679270666
2440.93,0.010831102289649583
2436.93,0.008247282364699612
2432.94,0.005178663680062964
2428.94,0.004256932008904909
2424.94,0.005293525647373675
2420.94,0.006148373358829686
2416.95,0.006870244204656009
2412.95,0.009183179023885286
2408.95,0.01318005240120405
2404.95,0.016697268555916748
2400.95,0.01768801682108399
2396.96,0.015702450673288147
2392.96,0.011287876660599579
2388.96,0.006118521431768282
2384.96,0.0027599641896602647
2380.97,0.002795652854826156
2376.97,0.0052744487612887666
2372.97,0.0069452543488207775
2368.97,0.005554377915750967
2364.98,0.002821414648532298
2360.98,0.0020928946270963706
2356.98,0.003493080792988781
2352.98,0.00452296093502569
2348.99,0.004043775888620761
2344.99,0.003002730529659797
2340.99,0.00305808578810699
2336.99,0.004847139426604973
2333.0,0.007240009218278414
2329.0,0.008747183375634076
2325.0,0.008745421247676416
2321.0,0.00755570369391528
2317.0,0.006294678250752756
2313.01,0.006408504760487235
2309.01,0.008939640134809131
2305.01,0.014063242754284958
2301.01,0.021161300854813908
2297.02,0.028376235805303317
2293.02,0.033147815909373726
2289.02,0.035668230648669884
2285.02,0.03928362955681827
2281.03,0.047452622172659074
2277.03,0.06128262638374861
2273.03,0.0773681560377471
2269.03,0.08993424647168448
2265.04,0.08955548577493769
2261.04,0.07212705104746554
2257.04,0.04862017885452552
2253.04,0.030998054719651294
2249.05,0.028197005957853426
2245.05,0.037118157996062086
2241.05,0.04607228463667998
2237.05,0.05365757867864962
2233.05,0.05867222380027964
2229.06,0.05992740375490179
2225.06,0.056560583299028785
2221.06,0.05122036359189768
2217.06,0.04562405041493347
2213.07,0.03815016552985774
2209.07,0.03607932061584419
2205.07,0.03971374618042814
2201.07,0.04345976981594004
2197.08,0.044144220492099005
2193.08,0.04398903809461722
2189.08,0.039760217414837866
2185.08,0.02120099489221861
2181.09,-0.003950954343448384
2177.09,-0.016891233363227707
2173.09,0.003450386907826358
2169.09,0.03236702183119453
2165.1,0.04258956879746922
2161.1,0.04834626597299199
2157.1,0.06805674629168589
2153.1,0.08319695527189441
2149.11,0.07293333706829848
2145.11,0.049546996230869556
2141.11,0.03719389538559265
2137.11,0.0334853350371807
2133.11,0.024111233180220657
2129.12,0.016339157912531054
2125.12,0.018134056537692796
2121.12,0.02111039057716044
2117.12,0.01279790876222563
2113.13,-0.0057959895832149395
2109.13,-0.023233321495597935
2105.13,-0.0297989159085718
2101.13,-0.026378722883018787
2097.14,-0.023327491874876094
2093.14,-0.024320327860538248
2089.14,-0.025263805722527306
2085.14,-0.02120395431931956
2081.15,-0.010685042634747415
2077.15,0.008971805170470564
2073.15,0.03490771111745866
2069.15,0.04701723941105058
2065.16,0.03703889592243018
2061.16,0.022138917892064427
2057.16,0.02235383059985259
2053.16,0.027054005982222292
2049.16,0.027528106453540677
2045.17,0.046774216975442665
2041.17,0.07524957222142356
2037.17,0.07501277073690352
2033.17,0.06510169304320736
2029.18,0.04693663267520933
2025.18,0.0200630108823948
2021.18,0.019528834625391994
2017.18,0.018631162596162078
2013.19,0.007376514799092138
2009.19,0.015430126989532235
2005.19,0.03537663249212378
2001.19,0.04799073129632703
1997.2,0.058731094924813765
1993.2,0.0492682171383044
1989.2,0.02097175195805051
1985.2,-0.015673741871077725
1981.21,-0.04180199866343695
1977.21,-0.02554254783449998
1973.21,-0.012947854942613161
1969.21,-0.00620065592599041
1965.21,0.009500950617935017
1961.22,0.02504141134720869
1957.22,0.016750383413708964
1953.22,-0.010936656164063014
1949.22,-0.03710745589413
1945.23,-0.04152183197769726
1941.23,-0.03121243999119026
1937.23,-0.02798180745863185
1933.23,-0.03304398240748556
1929.24,-0.031563769388941176
1925.24,-0.01820954985145059
1921.24,-0.004685244929289577
1917.24,0.0030831671632955745
1913.25,0.005494364867525899
1909.25,0.0019264442176267066
1905.25,-0.005675704924910897
1901.25,-0.012677306223914615
1897.26,-0.013815376120805974
1893.26,-0.009565593333214849
1889.26,-0.0050425230490065585
1885.26,-0.001256640883567323
1881.26,0.0024588995332322683
1877.27,0.003930072065733582
1873.27,0.0012933183702221694
1869.27,-0.003046460259732124
1865.27,-0.005120962844689771
1861.28,-0.00489247112538774
1857.28,-0.005375590278814933
1853.28,-0.006704473553286634
1849.28,-0.0063449119279799585
1845.29,-0.004201522639227951
1841.29,-0.0032785387560324316
1837.29,-0.004042718437627576
1833.29,-0.004219196144929132
1829.3,-0.0029884928589782745
1825.3,-0.0021911662178143824
1821.3,-0.0025096103979915687
1817.3,-0.0025697182968323386
1813.31,-0.0017652889016060804
1809.31,-0.0010953364905617149
1805.31,-0.0010832744158473218
1801.31,-0.0010730383437127314
1797.32,-0.0005089729562443421
1793.32,0.00025297052290057146
1789.32,0.0009571960731943599
1785.32,0.0018047972451071294
1781.32,0.0024997171605444365
1777.33,0.002323532164864255
1773.33,0.0013851132584961304
1769.33,0.0008339161928685599
1765.33,0.0012069215964917617
1761.34,0.0018595169488630971
1757.34,0.0025408810075705657
1753.34,0.0037206480982046753
1749.34,0.0052100897476563095
1745.35,0.006029605771505194
1741.35,0.006142673481841709
1737.35,0.006619273411972537
1733.35,0.007862430327801921
1729.36,0.008896942713917638
1725.36,0.00934436494849148
1721.36,0.009932296794293381
1717.36,0.0111021229723701
1713.37,0.012041986619282177
1709.37,0.012103260773585218
1705.37,0.011798817880380341
1701.37,0.012070057030106959
1697.37,0.01298903359215535
1693.38,0.013840053623310743
1689.38,0.014396435770055992
1685.38,0.014804691029101098
1681.38,0.015125928951897159
1677.39,0.015473228624222212
1673.39,0.016106135645332486
1669.39,0.017054977453175024
1665.39,0.018003841641434593
1661.4,0.01875996816453025
1657.4,0.0193402678985684
1653.4,0.01962342549658827
1649.4,0.01950399667255113
1645.41,0.01926458612344333
1641.41,0.019030653219882492
1637.41,0.018519624860413596
1633.41,0.017681136238173363
1629.42,0.01705064496863965
1625.42,0.01700025422827162
1621.42,0.017249374958562557
1617.42,0.017523837195390975
1613.42,0.018181164101196093
1609.43,0.019416649073770748
1605.43,0.020408795096509974
1601.43,0.020073740882720376
1597.43,0.01848525304437781
1593.44,0.01689341286548899
1589.44,0.01620897741812819
1585.44,0.016183818651582572
1581.44,0.016327988423228447
1577.45,0.016688814336315437
1573.45,0.017356995207527363
1569.45,0.01807693048267279
1565.45,0.018913774466699066
1561.46,0.02045754875918455
1557.46,0.022644934475549054
1553.46,0.024441015591451225
1549.46,0.02586531759781256
1545.47,0.02801067455592234
1541.47,0.03120934580965626
1537.47,0.03399380169352691
1533.47,0.03569640143695912
1529.47,0.037212728998585735
1525.48,0.03864161934844105
1521.48,0.03887215005687379
1517.48,0.037523220957486024
1513.48,0.03521047345626065
1509.49,0.032091077420623226
1505.49,0.028649371015214326
1501.49,0.026222807287919044
1497.49,0.025411441303114013
1493.5,0.025808283973450877
1489.5,0.026784524602547932
1485.5,0.028081058033499348
1481.5,0.029798394373632322
1477.51,0.031665550402537226
1473.51,0.03269939085871506
1469.51,0.03238110548605166
1465.51,0.03143022782154738
1461.52,0.03047603653908909
1457.52,0.029685623179925694
1453.52,0.02944327756015156
1449.52,0.029952893933317945
1445.53,0.0307610705162758
1441.53,0.03144162223826607
1437.53,0.03242607614141913
1433.53,0.034522957019489736
1429.53,0.037211535881887456
1425.54,0.038452991908674045
1421.54,0.03658685871440547
1417.54,0.032535877249876055
1413.54,0.02849498035438493
1409.55,0.025234554859825946
1405.55,0.022737331952605168
1401.55,0.021811065936083104
1397.55,0.023598481634800342
1393.56,0.027568738628015475
1389.56,0.03129948965733469
1385.56,0.03292096844282035
1381.56,0.032562048804381793
1377.57,0.03135266975452908
1373.57,0.029906733564453898
1369.57,0.027825743866236912
1365.57,0.024654404724088554
1361.58,0.021062063789127183
1357.58,0.01846766805867664
1353.58,0.017371478909431366
1349.58,0.01701363946189047
1345.58,0.01674013512065472
1341.59,0.016778422733283328
1337.59,0.01737084547173251
1333.59,0.017911030834156346
1329.59,0.017780550634984852
1325.6,0.017356193827575268
1321.6,0.017426098193128518
1317.6,0.018041834288755828
1313.6,0.01874766460708017
1309.61,0.019626742577465092
1305.61,0.021140131125681593
1301.61,0.02316641329398824
1297.61,0.025115469194777383
1293.62,0.026875591097679237
1289.62,0.02884556049124358
1285.62,0.031086072501236038
1281.62,0.0332865481224676
1277.63,0.035432416506342754
1273.63,0.03761975311608869
1269.63,0.039460465512946095
1265.63,0.04079193373002711
1261.63,0.04273555464580938
